5.0000000 5812.0000000
5.0196890 5934.0000000
5.0393780 5935.0000000
5.0590670 6015.0000000
5.0787560 6077.0000000
5.0984450 5885.0000000
5.1181340 5943.0000000
5.1378230 6080.0000000
5.1575120 5996.0000000
5.1772010 6141.0000000
5.1968900 6032.0000000
5.2165790 6011.0000000
5.2362680 5980.0000000
5.2559570 5954.0000000
5.2756460 6146.0000000
5.2953350 6024.0000000
5.3150240 6124.0000000
5.3347130 5966.0000000
5.3544020 5990.0000000
5.3740910 6045.0000000
5.3937800 6259.0000000
5.4134690 6060.0000000
5.4331580 6086.0000000
5.4528470 6079.0000000
5.4725360 6036.0000000
5.4922250 6038.0000000
5.5119140 6125.0000000
5.5316030 6073.0000000
5.5512920 6124.0000000
5.5709810 6072.0000000
5.5906700 6184.0000000
5.6103590 6187.0000000
5.6300480 6157.0000000
5.6497370 6268.0000000
5.6694260 6153.0000000
5.6891150 6071.0000000
5.7088040 6234.0000000
5.7284930 6116.0000000
5.7481820 6213.0000000
5.7678710 6038.0000000
5.7875600 6051.0000000
5.8072490 6278.0000000
5.8269380 6150.0000000
5.8466270 6121.0000000
5.8663160 6228.0000000
5.8860050 6189.0000000
5.9056940 6124.0000000
5.9253830 6207.0000000
5.9450720 6153.0000000
5.9647610 6278.0000000
5.9844500 6188.0000000
6.0041390 6242.0000000
6.0238280 6192.0000000
6.0435170 6175.0000000
6.0632060 6069.0000000
6.0828950 6243.0000000
6.1025840 6148.0000000
6.1222730 6306.0000000
6.1419620 6184.0000000
6.1616510 6250.0000000
6.1813400 6247.0000000
6.2010290 6068.0000000
6.2207180 6201.0000000
6.2404070 6240.0000000
6.2600960 6175.0000000
6.2797850 6298.0000000
6.2994740 6338.0000000
6.3191630 6220.0000000
6.3388520 6287.0000000
6.3585410 6275.0000000
6.3782300 6275.0000000
6.3979190 6277.0000000
6.4176080 6274.0000000
6.4372970 6162.0000000
6.4569860 6281.0000000
6.4766750 6397.0000000
6.4963640 6351.0000000
6.5160530 6345.0000000
6.5357420 6354.0000000
6.5554310 6366.0000000
6.5751200 6418.0000000
6.5948090 6368.0000000
6.6144980 6329.0000000
6.6341870 6365.0000000
6.6538760 6448.0000000
6.6735650 6457.0000000
6.6932540 6409.0000000
6.7129430 6547.0000000
6.7326320 6468.0000000
6.7523210 6489.0000000
6.7720100 6623.0000000
6.7916990 6423.0000000
6.8113880 6461.0000000
6.8310770 6486.0000000
6.8507660 6505.0000000
6.8704550 6495.0000000
6.8901440 6574.0000000
6.9098330 6526.0000000
6.9295220 6614.0000000
6.9492110 6540.0000000
6.9689000 6572.0000000
6.9885890 6754.0000000
7.0082780 6424.0000000
7.0279670 6577.0000000
7.0476560 6590.0000000
7.0673450 6663.0000000
7.0870340 6592.0000000
7.1067230 6667.0000000
7.1264120 6634.0000000
7.1461010 6624.0000000
7.1657900 6548.0000000
7.1854790 6494.0000000
7.2051680 6558.0000000
7.2248570 6497.0000000
7.2445460 6623.0000000
7.2642350 6696.0000000
7.2839240 6489.0000000
7.3036130 6728.0000000
7.3233020 6608.0000000
7.3429910 6567.0000000
7.3626800 6549.0000000
7.3823690 6586.0000000
7.4020580 6672.0000000
7.4217470 6567.0000000
7.4414360 6615.0000000
7.4611250 6639.0000000
7.4808140 6667.0000000
7.5005030 6598.0000000
7.5201920 6480.0000000
7.5398810 6493.0000000
7.5595700 6469.0000000
7.5792590 6429.0000000
7.5989480 6373.0000000
7.6186370 6403.0000000
7.6383260 6550.0000000
7.6580150 6475.0000000
7.6777040 6436.0000000
7.6973930 6518.0000000
7.7170820 6424.0000000
7.7367710 6361.0000000
7.7564600 6429.0000000
7.7761490 6431.0000000
7.7958380 6396.0000000
7.8155270 6374.0000000
7.8352160 6318.0000000
7.8549050 6424.0000000
7.8745940 6202.0000000
7.8942830 6123.0000000
7.9139720 6207.0000000
7.9336610 6322.0000000
7.9533500 6243.0000000
7.9730390 6175.0000000
7.9927280 6110.0000000
8.0124170 6293.0000000
8.0321060 6124.0000000
8.0517950 6285.0000000
8.0714840 6231.0000000
8.0911730 6263.0000000
8.1108620 6091.0000000
8.1305510 6191.0000000
8.1502400 5983.0000000
8.1699290 6116.0000000
8.1896180 6086.0000000
8.2093070 5964.0000000
8.2289960 6193.0000000
8.2486850 6024.0000000
8.2683740 6042.0000000
8.2880630 6069.0000000
8.3077520 6062.0000000
8.3274410 6014.0000000
8.3471300 6016.0000000
8.3668190 5866.0000000
8.3865080 5911.0000000
8.4061970 5804.0000000
8.4258860 5972.0000000
8.4455750 5964.0000000
8.4652640 5809.0000000
8.4849530 5934.0000000
8.5046420 5867.0000000
8.5243310 5745.0000000
8.5440200 5848.0000000
8.5637090 5937.0000000
8.5833980 5915.0000000
8.6030870 5854.0000000
8.6227760 5828.0000000
8.6424650 5927.0000000
8.6621540 5668.0000000
8.6818430 5610.0000000
8.7015320 5668.0000000
8.7212210 5667.0000000
8.7409100 5771.0000000
8.7605990 5634.0000000
8.7802880 5558.0000000
8.7999770 5515.0000000
8.8196660 5621.0000000
8.8393550 5594.0000000
8.8590440 5554.0000000
8.8787330 5614.0000000
8.8984220 5706.0000000
8.9181110 5458.0000000
8.9378000 5526.0000000
8.9574890 5556.0000000
8.9771780 5573.0000000
8.9968670 5488.0000000
9.0165560 5495.0000000
9.0362450 5566.0000000
9.0559340 5537.0000000
9.0756230 5529.0000000
9.0953120 5549.0000000
9.1150010 5526.0000000
9.1346900 5470.0000000
9.1543790 5444.0000000
9.1740680 5470.0000000
9.1937570 5520.0000000
9.2134460 5547.0000000
9.2331350 5404.0000000
9.2528240 5232.0000000
9.2725130 5323.0000000
9.2922020 5366.0000000
9.3118910 5436.0000000
9.3315800 5419.0000000
9.3512690 5356.0000000
9.3709580 5429.0000000
9.3906470 5270.0000000
9.4103360 5263.0000000
9.4300250 5370.0000000
9.4497140 5334.0000000
9.4694030 5257.0000000
9.4890920 5270.0000000
9.5087810 5265.0000000
9.5284700 5400.0000000
9.5481590 5295.0000000
9.5678480 5141.0000000
9.5875370 5227.0000000
9.6072260 5220.0000000
9.6269150 5161.0000000
9.6466040 5206.0000000
9.6662930 5083.0000000
9.6859820 5266.0000000
9.7056710 5011.0000000
9.7253600 5088.0000000
9.7450490 5187.0000000
9.7647380 4966.0000000
9.7844270 5027.0000000
9.8041160 5087.0000000
9.8238050 5003.0000000
9.8434940 4936.0000000
9.8631830 5042.0000000
9.8828720 5090.0000000
9.9025610 5092.0000000
9.9222500 4945.0000000
9.9419390 5069.0000000
9.9616280 5077.0000000
9.9813170 5066.0000000
10.0010060 5017.0000000
10.0206950 5047.0000000
10.0403840 4874.0000000
10.0600730 5000.0000000
10.0797620 4976.0000000
10.0994510 4959.0000000
10.1191400 4906.0000000
10.1388290 5166.0000000
10.1585180 4890.0000000
10.1782070 4807.0000000
10.1978960 4964.0000000
10.2175850 4944.0000000
10.2372740 4941.0000000
10.2569630 4920.0000000
10.2766520 5042.0000000
10.2963410 4949.0000000
10.3160300 5154.0000000
10.3357190 5167.0000000
10.3554080 5556.0000000
10.3750970 7021.0000000
10.3947860 6290.0000000
10.4144750 5485.0000000
10.4341640 5011.0000000
10.4538530 4849.0000000
10.4735420 4826.0000000
10.4932310 4800.0000000
10.5129200 4927.0000000
10.5326090 4872.0000000
10.5522980 4856.0000000
10.5719870 4837.0000000
10.5916760 4770.0000000
10.6113650 4829.0000000
10.6310540 4870.0000000
10.6507430 4826.0000000
10.6704320 4982.0000000
10.6901210 4787.0000000
10.7098100 4887.0000000
10.7294990 4854.0000000
10.7491880 4759.0000000
10.7688770 4949.0000000
10.7885660 4749.0000000
10.8082550 4769.0000000
10.8279440 4814.0000000
10.8476330 4792.0000000
10.8673220 4804.0000000
10.8870110 4645.0000000
10.9067000 4940.0000000
10.9263890 4862.0000000
10.9460780 4969.0000000
10.9657670 4999.0000000
10.9854560 4706.0000000
11.0051450 4905.0000000
11.0248340 4915.0000000
11.0445230 4820.0000000
11.0642120 4888.0000000
11.0839010 4809.0000000
11.1035900 4908.0000000
11.1232790 4887.0000000
11.1429680 4920.0000000
11.1626570 4912.0000000
11.1823460 4932.0000000
11.2020350 4928.0000000
11.2217240 4847.0000000
11.2414130 4804.0000000
11.2611020 4856.0000000
11.2807910 4870.0000000
11.3004800 4855.0000000
11.3201690 4780.0000000
11.3398580 4854.0000000
11.3595470 5018.0000000
11.3792360 4915.0000000
11.3989250 4931.0000000
11.4186140 4955.0000000
11.4383030 4823.0000000
11.4579920 4904.0000000
11.4776810 4788.0000000
11.4973700 4921.0000000
11.5170590 4900.0000000
11.5367480 4854.0000000
11.5564370 4943.0000000
11.5761260 4793.0000000
11.5958150 4995.0000000
11.6155040 4740.0000000
11.6351930 4771.0000000
11.6548820 4928.0000000
11.6745710 4894.0000000
11.6942600 4920.0000000
11.7139490 4730.0000000
11.7336380 4746.0000000
11.7533270 4736.0000000
11.7730160 4914.0000000
11.7927050 4934.0000000
11.8123940 4984.0000000
11.8320830 4832.0000000
11.8517720 5032.0000000
11.8714610 4977.0000000
11.8911500 4828.0000000
11.9108390 4897.0000000
11.9305280 4770.0000000
11.9502170 4836.0000000
11.9699060 4856.0000000
11.9895950 4856.0000000
12.0092840 4795.0000000
12.0289730 4836.0000000
12.0486620 4989.0000000
12.0683510 4974.0000000
12.0880400 4829.0000000
12.1077290 4842.0000000
12.1274180 4931.0000000
12.1471070 4881.0000000
12.1667960 4886.0000000
12.1864850 4835.0000000
12.2061740 4843.0000000
12.2258630 4842.0000000
12.2455520 4845.0000000
12.2652410 4875.0000000
12.2849300 4917.0000000
12.3046190 4709.0000000
12.3243080 4878.0000000
12.3439970 4779.0000000
12.3636860 4942.0000000
12.3833750 4861.0000000
12.4030640 4908.0000000
12.4227530 4801.0000000
12.4424420 4919.0000000
12.4621310 4880.0000000
12.4818200 4814.0000000
12.5015090 5029.0000000
12.5211980 4870.0000000
12.5408870 5237.0000000
12.5605760 6079.0000000
12.5802650 5889.0000000
12.5999540 5835.0000000
12.6196430 5255.0000000
12.6393320 5294.0000000
12.6590210 5205.0000000
12.6787100 4805.0000000
12.6983990 4688.0000000
12.7180880 4716.0000000
12.7377770 4579.0000000
12.7574660 4607.0000000
12.7771550 4591.0000000
12.7968440 4630.0000000
12.8165330 4519.0000000
12.8362220 4778.0000000
12.8559110 4496.0000000
12.8756000 4545.0000000
12.8952890 4535.0000000
12.9149780 4515.0000000
12.9346670 4707.0000000
12.9543560 4605.0000000
12.9740450 4584.0000000
12.9937340 4656.0000000
13.0134230 4545.0000000
13.0331120 4595.0000000
13.0528010 4548.0000000
13.0724900 4577.0000000
13.0921790 4577.0000000
13.1118680 4508.0000000
13.1315570 4569.0000000
13.1512460 4503.0000000
13.1709350 4523.0000000
13.1906240 4605.0000000
13.2103130 4549.0000000
13.2300020 4461.0000000
13.2496910 4430.0000000
13.2693800 4531.0000000
13.2890690 4528.0000000
13.3087580 4524.0000000
13.3284470 4528.0000000
13.3481360 4517.0000000
13.3678250 4590.0000000
13.3875140 4532.0000000
13.4072030 4514.0000000
13.4268920 4433.0000000
13.4465810 4485.0000000
13.4662700 4541.0000000
13.4859590 4494.0000000
13.5056480 4456.0000000
13.5253370 4505.0000000
13.5450260 4554.0000000
13.5647150 4471.0000000
13.5844040 4422.0000000
13.6040930 4505.0000000
13.6237820 4524.0000000
13.6434710 4731.0000000
13.6631600 4552.0000000
13.6828490 4502.0000000
13.7025380 4497.0000000
13.7222270 4519.0000000
13.7419160 4624.0000000
13.7616050 4464.0000000
13.7812940 4822.0000000
13.8009830 5063.0000000
13.8206720 5065.0000000
13.8403610 5878.0000000
13.8600500 6251.0000000
13.8797390 6194.0000000
13.8994280 5773.0000000
13.9191170 5298.0000000
13.9388060 4753.0000000
13.9584950 4635.0000000
13.9781840 4558.0000000
13.9978730 4450.0000000
14.0175620 4555.0000000
14.0372510 4430.0000000
14.0569400 4477.0000000
14.0766290 4460.0000000
14.0963180 4427.0000000
14.1160070 4403.0000000
14.1356960 4439.0000000
14.1553850 4239.0000000
14.1750740 4433.0000000
14.1947630 4428.0000000
14.2144520 4374.0000000
14.2341410 4381.0000000
14.2538300 4356.0000000
14.2735190 4438.0000000
14.2932080 4297.0000000
14.3128970 4366.0000000
14.3325860 4429.0000000
14.3522750 4492.0000000
14.3719640 4333.0000000
14.3916530 4356.0000000
14.4113420 4477.0000000
14.4310310 4593.0000000
14.4507200 4545.0000000
14.4704090 4685.0000000
14.4900980 4642.0000000
14.5097870 4696.0000000
14.5294760 4738.0000000
14.5491650 4506.0000000
14.5688540 4463.0000000
14.5885430 4400.0000000
14.6082320 4352.0000000
14.6279210 4410.0000000
14.6476100 4346.0000000
14.6672990 4269.0000000
14.6869880 4355.0000000
14.7066770 4157.0000000
14.7263660 4326.0000000
14.7460550 4307.0000000
14.7657440 4180.0000000
14.7854330 4299.0000000
14.8051220 4290.0000000
14.8248110 4175.0000000
14.8445000 4103.0000000
14.8641890 4377.0000000
14.8838780 4196.0000000
14.9035670 4186.0000000
14.9232560 4259.0000000
14.9429450 4084.0000000
14.9626340 4168.0000000
14.9823230 4140.0000000
15.0020120 4164.0000000
15.0217010 4232.0000000
15.0413900 4310.0000000
15.0610790 4225.0000000
15.0807680 4067.0000000
15.1004570 4199.0000000
15.1201460 4160.0000000
15.1398350 4143.0000000
15.1595240 4148.0000000
15.1792130 4048.0000000
15.1989020 4219.0000000
15.2185910 4099.0000000
15.2382800 4162.0000000
15.2579690 4249.0000000
15.2776580 4176.0000000
15.2973470 4208.0000000
15.3170360 4099.0000000
15.3367250 4189.0000000
15.3564140 4025.0000000
15.3761030 4115.0000000
15.3957920 4193.0000000
15.4154810 4080.0000000
15.4351700 4140.0000000
15.4548590 4180.0000000
15.4745480 3991.0000000
15.4942370 4128.0000000
15.5139260 4104.0000000
15.5336150 3995.0000000
15.5533040 4149.0000000
15.5729930 3983.0000000
15.5926820 4172.0000000
15.6123710 4040.0000000
15.6320600 4065.0000000
15.6517490 4034.0000000
15.6714380 4052.0000000
15.6911270 3944.0000000
15.7108160 4075.0000000
15.7305050 4014.0000000
15.7501940 4091.0000000
15.7698830 4113.0000000
15.7895720 4067.0000000
15.8092610 4149.0000000
15.8289500 3992.0000000
15.8486390 3934.0000000
15.8683280 4080.0000000
15.8880170 4117.0000000
15.9077060 4160.0000000
15.9273950 4000.0000000
15.9470840 4024.0000000
15.9667730 4039.0000000
15.9864620 4036.0000000
16.0061510 4071.0000000
16.0258400 4056.0000000
16.0455290 4030.0000000
16.0652180 3996.0000000
16.0849070 3972.0000000
16.1045960 4106.0000000
16.1242850 3992.0000000
16.1439740 4086.0000000
16.1636630 4166.0000000
16.1833520 4077.0000000
16.2030410 4130.0000000
16.2227300 4066.0000000
16.2424190 4046.0000000
16.2621080 3998.0000000
16.2817970 4132.0000000
16.3014860 4129.0000000
16.3211750 4100.0000000
16.3408640 4122.0000000
16.3605530 4048.0000000
16.3802420 4132.0000000
16.3999310 3992.0000000
16.4196200 4111.0000000
16.4393090 4017.0000000
16.4589980 4035.0000000
16.4786870 3926.0000000
16.4983760 4074.0000000
16.5180650 4116.0000000
16.5377540 4034.0000000
16.5574430 4064.0000000
16.5771320 4104.0000000
16.5968210 4069.0000000
16.6165100 4031.0000000
16.6361990 4005.0000000
16.6558880 4064.0000000
16.6755770 4094.0000000
16.6952660 4137.0000000
16.7149550 4094.0000000
16.7346440 4211.0000000
16.7543330 4347.0000000
16.7740220 4108.0000000
16.7937110 4077.0000000
16.8134000 4083.0000000
16.8330890 4077.0000000
16.8527780 4022.0000000
16.8724670 4086.0000000
16.8921560 4055.0000000
16.9118450 4140.0000000
16.9315340 4091.0000000
16.9512230 4164.0000000
16.9709120 4197.0000000
16.9906010 4183.0000000
17.0102900 4208.0000000
17.0299790 4261.0000000
17.0496680 4278.0000000
17.0693570 4323.0000000
17.0890460 4641.0000000
17.1087350 5060.0000000
17.1284240 5399.0000000
17.1481130 6299.0000000
17.1678020 7301.0000000
17.1874910 8254.0000000
17.2071800 7144.0000000
17.2268690 6863.0000000
17.2465580 6137.0000000
17.2662470 5350.0000000
17.2859360 5035.0000000
17.3056250 4614.0000000
17.3253140 4340.0000000
17.3450030 4174.0000000
17.3646920 4085.0000000
17.3843810 4043.0000000
17.4040700 4092.0000000
17.4237590 4062.0000000
17.4434480 4034.0000000
17.4631370 4101.0000000
17.4828260 4004.0000000
17.5025150 4074.0000000
17.5222040 3882.0000000
17.5418930 4020.0000000
17.5615820 4056.0000000
17.5812710 4038.0000000
17.6009600 4172.0000000
17.6206490 4617.0000000
17.6403380 5969.0000000
17.6600270 6143.0000000
17.6797160 8933.0000000
17.6994050 6811.0000000
17.7190940 6083.0000000
17.7387830 5406.0000000
17.7584720 4162.0000000
17.7781610 3988.0000000
17.7978500 3898.0000000
17.8175390 3974.0000000
17.8372280 3913.0000000
17.8569170 3795.0000000
17.8766060 3888.0000000
17.8962950 3835.0000000
17.9159840 3824.0000000
17.9356730 3876.0000000
17.9553620 3845.0000000
17.9750510 3849.0000000
17.9947400 3735.0000000
18.0144290 3808.0000000
18.0341180 3907.0000000
18.0538070 3852.0000000
18.0734960 3892.0000000
18.0931850 3738.0000000
18.1128740 3854.0000000
18.1325630 3826.0000000
18.1522520 3915.0000000
18.1719410 3723.0000000
18.1916300 3838.0000000
18.2113190 3997.0000000
18.2310080 3910.0000000
18.2506970 3948.0000000
18.2703860 3892.0000000
18.2900750 3982.0000000
18.3097640 4796.0000000
18.3294530 5784.0000000
18.3491420 5021.0000000
18.3688310 5543.0000000
18.3885200 5928.0000000
18.4082090 6489.0000000
18.4278980 6382.0000000
18.4475870 5626.0000000
18.4672760 5217.0000000
18.4869650 4588.0000000
18.5066540 4260.0000000
18.5263430 3927.0000000
18.5460320 3875.0000000
18.5657210 3756.0000000
18.5854100 3814.0000000
18.6050990 3706.0000000
18.6247880 3723.0000000
18.6444770 3659.0000000
18.6641660 3865.0000000
18.6838550 3673.0000000
18.7035440 3756.0000000
18.7232330 3691.0000000
18.7429220 3756.0000000
18.7626110 3763.0000000
18.7823000 3725.0000000
18.8019890 3744.0000000
18.8216780 3686.0000000
18.8413670 3766.0000000
18.8610560 3799.0000000
18.8807450 3836.0000000
18.9004340 3873.0000000
18.9201230 3831.0000000
18.9398120 3710.0000000
18.9595010 3981.0000000
18.9791900 3996.0000000
18.9988790 3850.0000000
19.0185680 4122.0000000
19.0382570 4101.0000000
19.0579460 4956.0000000
19.0776350 7509.0000000
19.0973240 9137.0000000
19.1170130 9722.0000000
19.1367020 8547.0000000
19.1563910 8311.0000000
19.1760800 6989.0000000
19.1957690 5367.0000000
19.2154580 5196.0000000
19.2351470 4276.0000000
19.2548360 3953.0000000
19.2745250 3878.0000000
19.2942140 3695.0000000
19.3139030 3679.0000000
19.3335920 3536.0000000
19.3532810 3784.0000000
19.3729700 3704.0000000
19.3926590 3599.0000000
19.4123480 3588.0000000
19.4320370 3661.0000000
19.4517260 3591.0000000
19.4714150 3600.0000000
19.4911040 3605.0000000
19.5107930 3651.0000000
19.5304820 3685.0000000
19.5501710 3726.0000000
19.5698600 3627.0000000
19.5895490 3584.0000000
19.6092380 3676.0000000
19.6289270 3591.0000000
19.6486160 3429.0000000
19.6683050 3608.0000000
19.6879940 3661.0000000
19.7076830 3632.0000000
19.7273720 3571.0000000
19.7470610 3394.0000000
19.7667500 3488.0000000
19.7864390 3516.0000000
19.8061280 3419.0000000
19.8258170 3546.0000000
19.8455060 3473.0000000
19.8651950 3636.0000000
19.8848840 4043.0000000
19.9045730 4242.0000000
19.9242620 5291.0000000
19.9439510 4958.0000000
19.9636400 4552.0000000
19.9833290 4306.0000000
20.0030180 3919.0000000
20.0227070 3613.0000000
20.0423960 3504.0000000
20.0620850 3492.0000000
20.0817740 3360.0000000
20.1014630 3510.0000000
20.1211520 3467.0000000
20.1408410 3451.0000000
20.1605300 3472.0000000
20.1802190 3407.0000000
20.1999080 3388.0000000
20.2195970 3473.0000000
20.2392860 3450.0000000
20.2589750 3502.0000000
20.2786640 3504.0000000
20.2983530 3593.0000000
20.3180420 3802.0000000
20.3377310 3645.0000000
20.3574200 3701.0000000
20.3771090 3904.0000000
20.3967980 3651.0000000
20.4164870 3439.0000000
20.4361760 3517.0000000
20.4558650 3438.0000000
20.4755540 3395.0000000
20.4952430 3415.0000000
20.5149320 3470.0000000
20.5346210 3473.0000000
20.5543100 3620.0000000
20.5739990 3679.0000000
20.5936880 4055.0000000
20.6133770 3900.0000000
20.6330660 4084.0000000
20.6527550 3780.0000000
20.6724440 3625.0000000
20.6921330 3533.0000000
20.7118220 3346.0000000
20.7315110 3322.0000000
20.7512000 3341.0000000
20.7708890 3499.0000000
20.7905780 3498.0000000
20.8102670 3525.0000000
20.8299560 3982.0000000
20.8496450 3990.0000000
20.8693340 3563.0000000
20.8890230 3722.0000000
20.9087120 3669.0000000
20.9284010 3421.0000000
20.9480900 3432.0000000
20.9677790 3376.0000000
20.9874680 3439.0000000
21.0071570 3363.0000000
21.0268460 3378.0000000
21.0465350 3318.0000000
21.0662240 3358.0000000
21.0859130 3408.0000000
21.1056020 3365.0000000
21.1252910 3249.0000000
21.1449800 3317.0000000
21.1646690 3380.0000000
21.1843580 3373.0000000
21.2040470 3275.0000000
21.2237360 3314.0000000
21.2434250 3365.0000000
21.2631140 3286.0000000
21.2828030 3263.0000000
21.3024920 3196.0000000
21.3221810 3328.0000000
21.3418700 3279.0000000
21.3615590 3168.0000000
21.3812480 3266.0000000
21.4009370 3318.0000000
21.4206260 3345.0000000
21.4403150 3190.0000000
21.4600040 3368.0000000
21.4796930 3246.0000000
21.4993820 3390.0000000
21.5190710 3298.0000000
21.5387600 3314.0000000
21.5584490 3318.0000000
21.5781380 3389.0000000
21.5978270 3204.0000000
21.6175160 3213.0000000
21.6372050 3200.0000000
21.6568940 3283.0000000
21.6765830 3345.0000000
21.6962720 3295.0000000
21.7159610 3459.0000000
21.7356500 3405.0000000
21.7553390 3282.0000000
21.7750280 3298.0000000
21.7947170 3313.0000000
21.8144060 3296.0000000
21.8340950 3334.0000000
21.8537840 3272.0000000
21.8734730 3389.0000000
21.8931620 3236.0000000
21.9128510 3350.0000000
21.9325400 3367.0000000
21.9522290 3398.0000000
21.9719180 3343.0000000
21.9916070 3299.0000000
22.0112960 3374.0000000
22.0309850 3624.0000000
22.0506740 3784.0000000
22.0703630 4574.0000000
22.0900520 4786.0000000
22.1097410 3714.0000000
22.1294300 4054.0000000
22.1491190 3743.0000000
22.1688080 3395.0000000
22.1884970 3294.0000000
22.2081860 3191.0000000
22.2278750 3269.0000000
22.2475640 3243.0000000
22.2672530 3298.0000000
22.2869420 3199.0000000
22.3066310 3178.0000000
22.3263200 3275.0000000
22.3460090 3170.0000000
22.3656980 3147.0000000
22.3853870 3124.0000000
22.4050760 3252.0000000
22.4247650 3214.0000000
22.4444540 3062.0000000
22.4641430 3229.0000000
22.4838320 3225.0000000
22.5035210 3200.0000000
22.5232100 3228.0000000
22.5428990 3193.0000000
22.5625880 3162.0000000
22.5822770 3163.0000000
22.6019660 3230.0000000
22.6216550 3159.0000000
22.6413440 3165.0000000
22.6610330 3241.0000000
22.6807220 3189.0000000
22.7004110 3131.0000000
22.7201000 3251.0000000
22.7397890 3306.0000000
22.7594780 3153.0000000
22.7791670 3243.0000000
22.7988560 3208.0000000
22.8185450 3193.0000000
22.8382340 3267.0000000
22.8579230 3214.0000000
22.8776120 3248.0000000
22.8973010 3146.0000000
22.9169900 3119.0000000
22.9366790 3132.0000000
22.9563680 3151.0000000
22.9760570 3183.0000000
22.9957460 3186.0000000
23.0154350 3245.0000000
23.0351240 3136.0000000
23.0548130 3076.0000000
23.0745020 3157.0000000
23.0941910 3093.0000000
23.1138800 3130.0000000
23.1335690 3006.0000000
23.1532580 3093.0000000
23.1729470 3093.0000000
23.1926360 3101.0000000
23.2123250 3101.0000000
23.2320140 3157.0000000
23.2517030 3109.0000000
23.2713920 3066.0000000
23.2910810 3087.0000000
23.3107700 3072.0000000
23.3304590 3121.0000000
23.3501480 3036.0000000
23.3698370 3016.0000000
23.3895260 3145.0000000
23.4092150 3034.0000000
23.4289040 3126.0000000
23.4485930 3081.0000000
23.4682820 3114.0000000
23.4879710 3113.0000000
23.5076600 3145.0000000
23.5273490 3131.0000000
23.5470380 3006.0000000
23.5667270 3029.0000000
23.5864160 3075.0000000
23.6061050 3083.0000000
23.6257940 3177.0000000
23.6454830 3010.0000000
23.6651720 3110.0000000
23.6848610 3143.0000000
23.7045500 3120.0000000
23.7242390 3003.0000000
23.7439280 2995.0000000
23.7636170 3079.0000000
23.7833060 3018.0000000
23.8029950 2944.0000000
23.8226840 2961.0000000
23.8423730 3047.0000000
23.8620620 3101.0000000
23.8817510 3033.0000000
23.9014400 3149.0000000
23.9211290 3275.0000000
23.9408180 3195.0000000
23.9605070 3200.0000000
23.9801960 3135.0000000
23.9998850 3136.0000000
24.0195740 3079.0000000
24.0392630 3093.0000000
24.0589520 2952.0000000
24.0786410 3018.0000000
24.0983300 2982.0000000
24.1180190 2937.0000000
24.1377080 2893.0000000
24.1573970 3029.0000000
24.1770860 2906.0000000
24.1967750 2883.0000000
24.2164640 2979.0000000
24.2361530 2924.0000000
24.2558420 2946.0000000
24.2755310 2826.0000000
24.2952200 2882.0000000
24.3149090 2920.0000000
24.3345980 2996.0000000
24.3542870 2999.0000000
24.3739760 2917.0000000
24.3936650 2905.0000000
24.4133540 2902.0000000
24.4330430 2929.0000000
24.4527320 2914.0000000
24.4724210 2881.0000000
24.4921100 2936.0000000
24.5117990 2816.0000000
24.5314880 2831.0000000
24.5511770 2929.0000000
24.5708660 2921.0000000
24.5905550 2933.0000000
24.6102440 2951.0000000
24.6299330 3018.0000000
24.6496220 2870.0000000
24.6693110 2888.0000000
24.6890000 2915.0000000
24.7086890 2798.0000000
24.7283780 2888.0000000
24.7480670 2869.0000000
24.7677560 2782.0000000
24.7874450 2910.0000000
24.8071340 2890.0000000
24.8268230 2802.0000000
24.8465120 2806.0000000
24.8662010 2827.0000000
24.8858900 2917.0000000
24.9055790 2931.0000000
24.9252680 2936.0000000
24.9449570 2723.0000000
24.9646460 2776.0000000
24.9843350 2875.0000000
25.0040240 2879.0000000
25.0237130 2891.0000000
25.0434020 2807.0000000
25.0630910 2792.0000000
25.0827800 2798.0000000
25.1024690 2689.0000000
25.1221580 2871.0000000
25.1418470 2706.0000000
25.1615360 2814.0000000
25.1812250 2755.0000000
25.2009140 2897.0000000
25.2206030 2820.0000000
25.2402920 2778.0000000
25.2599810 2780.0000000
25.2796700 2908.0000000
25.2993590 3027.0000000
25.3190480 3302.0000000
25.3387370 3445.0000000
25.3584260 3088.0000000
25.3781150 3199.0000000
25.3978040 3287.0000000
25.4174930 3070.0000000
25.4371820 2843.0000000
25.4568710 2967.0000000
25.4765600 2867.0000000
25.4962490 2790.0000000
25.5159380 2828.0000000
25.5356270 2834.0000000
25.5553160 2826.0000000
25.5750050 3147.0000000
25.5946940 3457.0000000
25.6143830 3820.0000000
25.6340720 3485.0000000
25.6537610 3606.0000000
25.6734500 3487.0000000
25.6931390 3218.0000000
25.7128280 3178.0000000
25.7325170 3029.0000000
25.7522060 2956.0000000
25.7718950 2898.0000000
25.7915840 2794.0000000
25.8112730 2822.0000000
25.8309620 2808.0000000
25.8506510 2836.0000000
25.8703400 2745.0000000
25.8900290 2800.0000000
25.9097180 2724.0000000
25.9294070 2919.0000000
25.9490960 2960.0000000
25.9687850 3325.0000000
25.9884740 3991.0000000
26.0081630 4161.0000000
26.0278520 4439.0000000
26.0475410 4098.0000000
26.0672300 3715.0000000
26.0869190 3608.0000000
26.1066080 3590.0000000
26.1262970 3169.0000000
26.1459860 3320.0000000
26.1656750 3663.0000000
26.1853640 3544.0000000
26.2050530 3291.0000000
26.2247420 3170.0000000
26.2444310 3264.0000000
26.2641200 3075.0000000
26.2838090 3129.0000000
26.3034980 4027.0000000
26.3231870 4134.0000000
26.3428760 3429.0000000
26.3625650 3389.0000000
26.3822540 3877.0000000
26.4019430 3850.0000000
26.4216320 3115.0000000
26.4413210 2783.0000000
26.4610100 3038.0000000
26.4806990 2854.0000000
26.5003880 2642.0000000
26.5200770 2589.0000000
26.5397660 2680.0000000
26.5594550 2617.0000000
26.5791440 2642.0000000
26.5988330 2682.0000000
26.6185220 2870.0000000
26.6382110 3139.0000000
26.6579000 3299.0000000
26.6775890 3765.0000000
26.6972780 3384.0000000
26.7169670 2991.0000000
26.7366560 2933.0000000
26.7563450 3018.0000000
26.7760340 2666.0000000
26.7957230 2545.0000000
26.8154120 2540.0000000
26.8351010 2523.0000000
26.8547900 2600.0000000
26.8744790 2496.0000000
26.8941680 2483.0000000
26.9138570 2599.0000000
26.9335460 2403.0000000
26.9532350 2451.0000000
26.9729240 2588.0000000
26.9926130 2561.0000000
27.0123020 2457.0000000
27.0319910 2504.0000000
27.0516800 2569.0000000
27.0713690 2543.0000000
27.0910580 2515.0000000
27.1107470 2443.0000000
27.1304360 2527.0000000
27.1501250 2480.0000000
27.1698140 2438.0000000
27.1895030 2453.0000000
27.2091920 2446.0000000
27.2288810 2514.0000000
27.2485700 2509.0000000
27.2682590 2480.0000000
27.2879480 2450.0000000
27.3076370 2446.0000000
27.3273260 2545.0000000
27.3470150 2497.0000000
27.3667040 2500.0000000
27.3863930 2473.0000000
27.4060820 2510.0000000
27.4257710 2489.0000000
27.4454600 2436.0000000
27.4651490 2391.0000000
27.4848380 2402.0000000
27.5045270 2400.0000000
27.5242160 2434.0000000
27.5439050 2413.0000000
27.5635940 2438.0000000
27.5832830 2438.0000000
27.6029720 2438.0000000
27.6226610 2373.0000000
27.6423500 2511.0000000
27.6620390 2481.0000000
27.6817280 2380.0000000
27.7014170 2480.0000000
27.7211060 2576.0000000
27.7407950 2467.0000000
27.7604840 2455.0000000
27.7801730 2451.0000000
27.7998620 2645.0000000
27.8195510 2584.0000000
27.8392400 2515.0000000
27.8589290 2410.0000000
27.8786180 2527.0000000
27.8983070 2659.0000000
27.9179960 2558.0000000
27.9376850 2684.0000000
27.9573740 2752.0000000
27.9770630 2660.0000000
27.9967520 2545.0000000
28.0164410 2619.0000000
28.0361300 2472.0000000
28.0558190 2407.0000000
28.0755080 2425.0000000
28.0951970 2434.0000000
28.1148860 2439.0000000
28.1345750 2279.0000000
28.1542640 2304.0000000
28.1739530 2203.0000000
28.1936420 2345.0000000
28.2133310 2397.0000000
28.2330200 2366.0000000
28.2527090 2481.0000000
28.2723980 2353.0000000
28.2920870 2331.0000000
28.3117760 2345.0000000
28.3314650 2403.0000000
28.3511540 2302.0000000
28.3708430 2362.0000000
28.3905320 2256.0000000
28.4102210 2281.0000000
28.4299100 2278.0000000
28.4495990 2269.0000000
28.4692880 2192.0000000
28.4889770 2274.0000000
28.5086660 2254.0000000
28.5283550 2252.0000000
28.5480440 2198.0000000
28.5677330 2210.0000000
28.5874220 2183.0000000
28.6071110 2221.0000000
28.6268000 2158.0000000
28.6464890 2210.0000000
28.6661780 2157.0000000
28.6858670 2196.0000000
28.7055560 2260.0000000
28.7252450 2304.0000000
28.7449340 2232.0000000
28.7646230 2215.0000000
28.7843120 2234.0000000
28.8040010 2292.0000000
28.8236900 2112.0000000
28.8433790 2185.0000000
28.8630680 2262.0000000
28.8827570 2260.0000000
28.9024460 2237.0000000
28.9221350 2187.0000000
28.9418240 2216.0000000
28.9615130 2251.0000000
28.9812020 2234.0000000
29.0008910 2201.0000000
29.0205800 2214.0000000
29.0402690 2157.0000000
29.0599580 2171.0000000
29.0796470 2193.0000000
29.0993360 2249.0000000
29.1190250 2225.0000000
29.1387140 2333.0000000
29.1584030 2204.0000000
29.1780920 2288.0000000
29.1977810 2386.0000000
29.2174700 2409.0000000
29.2371590 2461.0000000
29.2568480 2406.0000000
29.2765370 2501.0000000
29.2962260 2424.0000000
29.3159150 2370.0000000
29.3356040 2416.0000000
29.3552930 2367.0000000
29.3749820 2376.0000000
29.3946710 2274.0000000
29.4143600 2283.0000000
29.4340490 2229.0000000
29.4537380 2206.0000000
29.4734270 2132.0000000
29.4931160 2081.0000000
29.5128050 2177.0000000
29.5324940 2077.0000000
29.5521830 2079.0000000
29.5718720 2153.0000000
29.5915610 2039.0000000
29.6112500 2054.0000000
29.6309390 2066.0000000
29.6506280 2149.0000000
29.6703170 2218.0000000
29.6900060 2279.0000000
29.7096950 2293.0000000
29.7293840 2287.0000000
29.7490730 2287.0000000
29.7687620 2139.0000000
29.7884510 2146.0000000
29.8081400 2230.0000000
29.8278290 2028.0000000
29.8475180 2073.0000000
29.8672070 2092.0000000
29.8868960 2029.0000000
29.9065850 2012.0000000
29.9262740 1993.0000000
29.9459630 1994.0000000
29.9656520 2011.0000000
29.9853410 2006.0000000
30.0050300 2068.0000000
30.0247190 2009.0000000
30.0444080 2030.0000000
30.0640970 2017.0000000
30.0837860 2029.0000000
30.1034750 1951.0000000
30.1231640 2025.0000000
30.1428530 1940.0000000
30.1625420 2068.0000000
30.1822310 1999.0000000
30.2019200 2042.0000000
30.2216090 2013.0000000
30.2412980 2018.0000000
30.2609870 2113.0000000
30.2806760 2062.0000000
30.3003650 2092.0000000
30.3200540 2103.0000000
30.3397430 2187.0000000
30.3594320 2350.0000000
30.3791210 2584.0000000
30.3988100 2411.0000000
30.4184990 2319.0000000
30.4381880 2362.0000000
30.4578770 2277.0000000
30.4775660 2223.0000000
30.4972550 2083.0000000
30.5169440 2100.0000000
30.5366330 2074.0000000
30.5563220 1955.0000000
30.5760110 1894.0000000
30.5957000 2000.0000000
30.6153890 1939.0000000
30.6350780 1981.0000000
30.6547670 1903.0000000
30.6744560 2000.0000000
30.6941450 2047.0000000
30.7138340 1980.0000000
30.7335230 1997.0000000
30.7532120 1973.0000000
30.7729010 1969.0000000
30.7925900 1980.0000000
30.8122790 1960.0000000
30.8319680 2008.0000000
30.8516570 1894.0000000
30.8713460 1941.0000000
30.8910350 1964.0000000
30.9107240 2052.0000000
30.9304130 2171.0000000
30.9501020 2076.0000000
30.9697910 2074.0000000
30.9894800 1902.0000000
31.0091690 2043.0000000
31.0288580 1980.0000000
31.0485470 1937.0000000
31.0682360 1975.0000000
31.0879250 1885.0000000
31.1076140 1978.0000000
31.1273030 1868.0000000
31.1469920 1894.0000000
31.1666810 1954.0000000
31.1863700 1895.0000000
31.2060590 1788.0000000
31.2257480 1929.0000000
31.2454370 1933.0000000
31.2651260 1814.0000000
31.2848150 1870.0000000
31.3045040 1970.0000000
31.3241930 1870.0000000
31.3438820 1904.0000000
31.3635710 1908.0000000
31.3832600 1839.0000000
31.4029490 1963.0000000
31.4226380 1859.0000000
31.4423270 1921.0000000
31.4620160 1939.0000000
31.4817050 1843.0000000
31.5013940 1924.0000000
31.5210830 1934.0000000
31.5407720 1955.0000000
31.5604610 1912.0000000
31.5801500 1916.0000000
31.5998390 1927.0000000
31.6195280 1801.0000000
31.6392170 1942.0000000
31.6589060 2046.0000000
31.6785950 2049.0000000
31.6982840 1965.0000000
31.7179730 1972.0000000
31.7376620 1958.0000000
31.7573510 2096.0000000
31.7770400 2240.0000000
31.7967290 2451.0000000
31.8164180 2449.0000000
31.8361070 2370.0000000
31.8557960 2446.0000000
31.8754850 2291.0000000
31.8951740 2217.0000000
31.9148630 2143.0000000
31.9345520 2105.0000000
31.9542410 1927.0000000
31.9739300 1863.0000000
31.9936190 1899.0000000
32.0133080 1863.0000000
32.0329970 1810.0000000
32.0526860 1868.0000000
32.0723750 1964.0000000
32.0920640 1954.0000000
32.1117530 1946.0000000
32.1314420 1859.0000000
32.1511310 1834.0000000
32.1708200 1885.0000000
32.1905090 1933.0000000
32.2101980 1973.0000000
32.2298870 2083.0000000
32.2495760 2550.0000000
32.2692650 2262.0000000
32.2889540 2324.0000000
32.3086430 2819.0000000
32.3283320 2774.0000000
32.3480210 2284.0000000
32.3677100 2181.0000000
32.3873990 2359.0000000
32.4070880 2224.0000000
32.4267770 1986.0000000
32.4464660 1928.0000000
32.4661550 1829.0000000
32.4858440 1785.0000000
32.5055330 1900.0000000
32.5252220 1892.0000000
32.5449110 1857.0000000
32.5646000 1885.0000000
32.5842890 1955.0000000
32.6039780 1958.0000000
32.6236670 2034.0000000
32.6433560 1884.0000000
32.6630450 1829.0000000
32.6827340 1786.0000000
32.7024230 1892.0000000
32.7221120 1887.0000000
32.7418010 1826.0000000
32.7614900 1715.0000000
32.7811790 1892.0000000
32.8008680 1751.0000000
32.8205570 1828.0000000
32.8402460 1825.0000000
32.8599350 1849.0000000
32.8796240 1902.0000000
32.8993130 1848.0000000
32.9190020 1928.0000000
32.9386910 1893.0000000
32.9583800 1839.0000000
32.9780690 1924.0000000
32.9977580 1862.0000000
33.0174470 1922.0000000
33.0371360 1906.0000000
33.0568250 2066.0000000
33.0765140 2273.0000000
33.0962030 2327.0000000
33.1158920 2358.0000000
33.1355810 2156.0000000
33.1552700 2076.0000000
33.1749590 2186.0000000
33.1946480 2152.0000000
33.2143370 1888.0000000
33.2340260 1839.0000000
33.2537150 1886.0000000
33.2734040 1800.0000000
33.2930930 1781.0000000
33.3127820 1778.0000000
33.3324710 1776.0000000
33.3521600 1823.0000000
33.3718490 1789.0000000
33.3915380 1801.0000000
33.4112270 1762.0000000
33.4309160 1795.0000000
33.4506050 1801.0000000
33.4702940 1841.0000000
33.4899830 1957.0000000
33.5096720 2045.0000000
33.5293610 2195.0000000
33.5490500 2222.0000000
33.5687390 2337.0000000
33.5884280 2240.0000000
33.6081170 2078.0000000
33.6278060 1921.0000000
33.6474950 2047.0000000
33.6671840 2000.0000000
33.6868730 1913.0000000
33.7065620 1745.0000000
33.7262510 1787.0000000
33.7459400 1714.0000000
33.7656290 1696.0000000
33.7853180 1783.0000000
33.8050070 1727.0000000
33.8246960 1776.0000000
33.8443850 1702.0000000
33.8640740 1811.0000000
33.8837630 1855.0000000
33.9034520 1775.0000000
33.9231410 1774.0000000
33.9428300 1756.0000000
33.9625190 1831.0000000
33.9822080 1755.0000000
34.0018970 1725.0000000
34.0215860 1727.0000000
34.0412750 1666.0000000
34.0609640 1735.0000000
34.0806530 1693.0000000
34.1003420 1781.0000000
34.1200310 1703.0000000
34.1397200 1690.0000000
34.1594090 1658.0000000
34.1790980 1763.0000000
34.1987870 1748.0000000
34.2184760 1702.0000000
34.2381650 1765.0000000
34.2578540 1719.0000000
34.2775430 1704.0000000
34.2972320 1684.0000000
34.3169210 1762.0000000
34.3366100 1825.0000000
34.3562990 1798.0000000
34.3759880 1779.0000000
34.3956770 1750.0000000
34.4153660 1813.0000000
34.4350550 1815.0000000
34.4547440 1776.0000000
34.4744330 1757.0000000
34.4941220 1718.0000000
34.5138110 1776.0000000
34.5335000 1716.0000000
34.5531890 1731.0000000
34.5728780 1606.0000000
34.5925670 1747.0000000
34.6122560 1712.0000000
34.6319450 1727.0000000
34.6516340 1698.0000000
34.6713230 1672.0000000
34.6910120 1811.0000000
34.7107010 1757.0000000
34.7303900 1731.0000000
34.7500790 1703.0000000
34.7697680 1706.0000000
34.7894570 1764.0000000
34.8091460 1739.0000000
34.8288350 1783.0000000
34.8485240 1753.0000000
34.8682130 1770.0000000
34.8879020 1829.0000000
34.9075910 1817.0000000
34.9272800 1900.0000000
34.9469690 2081.0000000
34.9666580 2167.0000000
34.9863470 2397.0000000
35.0060360 2694.0000000
35.0257250 2181.0000000
35.0454140 1950.0000000
35.0651030 1981.0000000
35.0847920 2150.0000000
35.1044810 2002.0000000
35.1241700 1782.0000000
35.1438590 1776.0000000
35.1635480 1691.0000000
35.1832370 1727.0000000
35.2029260 1697.0000000
35.2226150 1756.0000000
35.2423040 1718.0000000
35.2619930 1686.0000000
35.2816820 1641.0000000
35.3013710 1609.0000000
35.3210600 1688.0000000
35.3407490 1696.0000000
35.3604380 1629.0000000
35.3801270 1622.0000000
35.3998160 1610.0000000
35.4195050 1617.0000000
35.4391940 1706.0000000
35.4588830 1683.0000000
35.4785720 1666.0000000
35.4982610 1653.0000000
35.5179500 1661.0000000
35.5376390 1667.0000000
35.5573280 1667.0000000
35.5770170 1639.0000000
35.5967060 1673.0000000
35.6163950 1715.0000000
35.6360840 1607.0000000
35.6557730 1639.0000000
35.6754620 1622.0000000
35.6951510 1611.0000000
35.7148400 1654.0000000
35.7345290 1673.0000000
35.7542180 1712.0000000
35.7739070 1841.0000000
35.7935960 1663.0000000
35.8132850 1663.0000000
35.8329740 1735.0000000
35.8526630 1773.0000000
35.8723520 1690.0000000
35.8920410 1671.0000000
35.9117300 1626.0000000
35.9314190 1675.0000000
35.9511080 1655.0000000
35.9707970 1658.0000000
35.9904860 1657.0000000
36.0101750 1590.0000000
36.0298640 1656.0000000
36.0495530 1688.0000000
36.0692420 1600.0000000
36.0889310 1631.0000000
36.1086200 1625.0000000
36.1283090 1630.0000000
36.1479980 1733.0000000
36.1676870 1760.0000000
36.1873760 1931.0000000
36.2070650 2018.0000000
36.2267540 1898.0000000
36.2464430 1844.0000000
36.2661320 1831.0000000
36.2858210 1823.0000000
36.3055100 1814.0000000
36.3251990 1735.0000000
36.3448880 1675.0000000
36.3645770 1665.0000000
36.3842660 1614.0000000
36.4039550 1673.0000000
36.4236440 1564.0000000
36.4433330 1583.0000000
36.4630220 1542.0000000
36.4827110 1549.0000000
36.5024000 1512.0000000
36.5220890 1568.0000000
36.5417780 1545.0000000
36.5614670 1536.0000000
36.5811560 1568.0000000
36.6008450 1579.0000000
36.6205340 1569.0000000
36.6402230 1513.0000000
36.6599120 1549.0000000
36.6796010 1670.0000000
36.6992900 1640.0000000
36.7189790 1656.0000000
36.7386680 1713.0000000
36.7583570 1662.0000000
36.7780460 1628.0000000
36.7977350 1570.0000000
36.8174240 1648.0000000
36.8371130 1666.0000000
36.8568020 1654.0000000
36.8764910 1591.0000000
36.8961800 1563.0000000
36.9158690 1584.0000000
36.9355580 1606.0000000
36.9552470 1571.0000000
36.9749360 1568.0000000
36.9946250 1587.0000000
37.0143140 1635.0000000
37.0340030 1687.0000000
37.0536920 1589.0000000
37.0733810 1558.0000000
37.0930700 1566.0000000
37.1127590 1521.0000000
37.1324480 1557.0000000
37.1521370 1590.0000000
37.1718260 1593.0000000
37.1915150 1598.0000000
37.2112040 1507.0000000
37.2308930 1544.0000000
37.2505820 1512.0000000
37.2702710 1464.0000000
37.2899600 1559.0000000
37.3096490 1575.0000000
37.3293380 1616.0000000
37.3490270 1536.0000000
37.3687160 1526.0000000
37.3884050 1544.0000000
37.4080940 1575.0000000
37.4277830 1508.0000000
37.4474720 1520.0000000
37.4671610 1549.0000000
37.4868500 1581.0000000
37.5065390 1576.0000000
37.5262280 1519.0000000
37.5459170 1569.0000000
37.5656060 1559.0000000
37.5852950 1526.0000000
37.6049840 1491.0000000
37.6246730 1430.0000000
37.6443620 1508.0000000
37.6640510 1492.0000000
37.6837400 1534.0000000
37.7034290 1496.0000000
37.7231180 1539.0000000
37.7428070 1496.0000000
37.7624960 1573.0000000
37.7821850 1477.0000000
37.8018740 1464.0000000
37.8215630 1493.0000000
37.8412520 1529.0000000
37.8609410 1540.0000000
37.8806300 1544.0000000
37.9003190 1494.0000000
37.9200080 1493.0000000
37.9396970 1403.0000000
37.9593860 1507.0000000
37.9790750 1512.0000000
37.9987640 1524.0000000
38.0184530 1523.0000000
38.0381420 1423.0000000
38.0578310 1595.0000000
38.0775200 1508.0000000
38.0972090 1532.0000000
38.1168980 1485.0000000
38.1365870 1543.0000000
38.1562760 1545.0000000
38.1759650 1609.0000000
38.1956540 1579.0000000
38.2153430 1848.0000000
38.2350320 1824.0000000
38.2547210 1631.0000000
38.2744100 1535.0000000
38.2940990 1545.0000000
38.3137880 1661.0000000
38.3334770 1777.0000000
38.3531660 1612.0000000
38.3728550 1695.0000000
38.3925440 1526.0000000
38.4122330 1530.0000000
38.4319220 1487.0000000
38.4516110 1566.0000000
38.4713000 1619.0000000
38.4909890 1690.0000000
38.5106780 1729.0000000
38.5303670 1645.0000000
38.5500560 1552.0000000
38.5697450 1581.0000000
38.5894340 1687.0000000
38.6091230 1640.0000000
38.6288120 1652.0000000
38.6485010 1621.0000000
38.6681900 1492.0000000
38.6878790 1500.0000000
38.7075680 1552.0000000
38.7272570 1582.0000000
38.7469460 1569.0000000
38.7666350 1541.0000000
38.7863240 1587.0000000
38.8060130 1648.0000000
38.8257020 1576.0000000
38.8453910 1592.0000000
38.8650800 1548.0000000
38.8847690 1624.0000000
38.9044580 1495.0000000
38.9241470 1524.0000000
38.9438360 1471.0000000
38.9635250 1451.0000000
38.9832140 1484.0000000
39.0029030 1396.0000000
39.0225920 1506.0000000
39.0422810 1494.0000000
39.0619700 1462.0000000
39.0816590 1420.0000000
39.1013480 1437.0000000
39.1210370 1418.0000000
39.1407260 1462.0000000
39.1604150 1518.0000000
39.1801040 1386.0000000
39.1997930 1431.0000000
39.2194820 1461.0000000
39.2391710 1470.0000000
39.2588600 1457.0000000
39.2785490 1427.0000000
39.2982380 1434.0000000
39.3179270 1453.0000000
39.3376160 1382.0000000
39.3573050 1475.0000000
39.3769940 1490.0000000
39.3966830 1500.0000000
39.4163720 1438.0000000
39.4360610 1404.0000000
39.4557500 1422.0000000
39.4754390 1438.0000000
39.4951280 1500.0000000
39.5148170 1655.0000000
39.5345060 1845.0000000
39.5541950 1692.0000000
39.5738840 1584.0000000
39.5935730 1544.0000000
39.6132620 1599.0000000
39.6329510 1616.0000000
39.6526400 1611.0000000
39.6723290 1449.0000000
39.6920180 1502.0000000
39.7117070 1434.0000000
39.7313960 1442.0000000
39.7510850 1369.0000000
39.7707740 1406.0000000
39.7904630 1393.0000000
39.8101520 1381.0000000
39.8298410 1386.0000000
39.8495300 1375.0000000
39.8692190 1383.0000000
39.8889080 1346.0000000
39.9085970 1372.0000000
39.9282860 1421.0000000
39.9479750 1456.0000000
39.9676640 1383.0000000
39.9873530 1374.0000000
40.0070420 1356.0000000
40.0267310 1328.0000000
40.0464200 1322.0000000
40.0661090 1352.0000000
40.0857980 1459.0000000
40.1054870 1367.0000000
40.1251760 1365.0000000
40.1448650 1404.0000000
40.1645540 1333.0000000
40.1842430 1356.0000000
40.2039320 1429.0000000
40.2236210 1395.0000000
40.2433100 1349.0000000
40.2629990 1422.0000000
40.2826880 1393.0000000
40.3023770 1342.0000000
40.3220660 1395.0000000
40.3417550 1400.0000000
40.3614440 1356.0000000
40.3811330 1377.0000000
40.4008220 1378.0000000
40.4205110 1364.0000000
40.4402000 1399.0000000
40.4598890 1347.0000000
40.4795780 1372.0000000
40.4992670 1291.0000000
40.5189560 1346.0000000
40.5386450 1390.0000000
40.5583340 1298.0000000
40.5780230 1354.0000000
40.5977120 1295.0000000
40.6174010 1319.0000000
40.6370900 1374.0000000
40.6567790 1335.0000000
40.6764680 1314.0000000
40.6961570 1275.0000000
40.7158460 1328.0000000
40.7355350 1335.0000000
40.7552240 1284.0000000
40.7749130 1327.0000000
40.7946020 1347.0000000
40.8142910 1272.0000000
40.8339800 1255.0000000
40.8536690 1290.0000000
40.8733580 1291.0000000
40.8930470 1365.0000000
40.9127360 1279.0000000
40.9324250 1311.0000000
40.9521140 1257.0000000
40.9718030 1372.0000000
40.9914920 1278.0000000
41.0111810 1307.0000000
41.0308700 1317.0000000
41.0505590 1279.0000000
41.0702480 1283.0000000
41.0899370 1321.0000000
41.1096260 1280.0000000
41.1293150 1284.0000000
41.1490040 1288.0000000
41.1686930 1372.0000000
41.1883820 1365.0000000
41.2080710 1289.0000000
41.2277600 1355.0000000
41.2474490 1282.0000000
41.2671380 1301.0000000
41.2868270 1368.0000000
41.3065160 1238.0000000
41.3262050 1290.0000000
41.3458940 1337.0000000
41.3655830 1222.0000000
41.3852720 1343.0000000
41.4049610 1356.0000000
41.4246500 1364.0000000
41.4443390 1280.0000000
41.4640280 1330.0000000
41.4837170 1358.0000000
41.5034060 1356.0000000
41.5230950 1316.0000000
41.5427840 1339.0000000
41.5624730 1358.0000000
41.5821620 1385.0000000
41.6018510 1282.0000000
41.6215400 1322.0000000
41.6412290 1338.0000000
41.6609180 1312.0000000
41.6806070 1266.0000000
41.7002960 1246.0000000
41.7199850 1248.0000000
41.7396740 1335.0000000
41.7593630 1295.0000000
41.7790520 1277.0000000
41.7987410 1327.0000000
41.8184300 1272.0000000
41.8381190 1297.0000000
41.8578080 1328.0000000
41.8774970 1391.0000000
41.8971860 1425.0000000
41.9168750 1382.0000000
41.9365640 1384.0000000
41.9562530 1355.0000000
41.9759420 1342.0000000
41.9956310 1423.0000000
42.0153200 1386.0000000
42.0350090 1337.0000000
42.0546980 1242.0000000
42.0743870 1353.0000000
42.0940760 1437.0000000
42.1137650 1515.0000000
42.1334540 1437.0000000
42.1531430 1459.0000000
42.1728320 1464.0000000
42.1925210 1341.0000000
42.2122100 1440.0000000
42.2318990 1336.0000000
42.2515880 1325.0000000
42.2712770 1460.0000000
42.2909660 1362.0000000
42.3106550 1252.0000000
42.3303440 1297.0000000
42.3500330 1322.0000000
42.3697220 1338.0000000
42.3894110 1260.0000000
42.4091000 1255.0000000
42.4287890 1248.0000000
42.4484780 1296.0000000
42.4681670 1343.0000000
42.4878560 1306.0000000
42.5075450 1278.0000000
42.5272340 1269.0000000
42.5469230 1275.0000000
42.5666120 1238.0000000
42.5863010 1204.0000000
42.6059900 1195.0000000
42.6256790 1287.0000000
42.6453680 1211.0000000
42.6650570 1208.0000000
42.6847460 1290.0000000
42.7044350 1261.0000000
42.7241240 1269.0000000
42.7438130 1253.0000000
42.7635020 1278.0000000
42.7831910 1270.0000000
42.8028800 1277.0000000
42.8225690 1193.0000000
42.8422580 1234.0000000
42.8619470 1245.0000000
42.8816360 1318.0000000
42.9013250 1249.0000000
42.9210140 1166.0000000
42.9407030 1281.0000000
42.9603920 1223.0000000
42.9800810 1217.0000000
42.9997700 1293.0000000
43.0194590 1268.0000000
43.0391480 1272.0000000
43.0588370 1174.0000000
43.0785260 1230.0000000
43.0982150 1227.0000000
43.1179040 1175.0000000
43.1375930 1251.0000000
43.1572820 1215.0000000
43.1769710 1198.0000000
43.1966600 1208.0000000
43.2163490 1226.0000000
43.2360380 1166.0000000
43.2557270 1181.0000000
43.2754160 1200.0000000
43.2951050 1242.0000000
43.3147940 1219.0000000
43.3344830 1253.0000000
43.3541720 1219.0000000
43.3738610 1227.0000000
43.3935500 1197.0000000
43.4132390 1223.0000000
43.4329280 1214.0000000
43.4526170 1177.0000000
43.4723060 1232.0000000
43.4919950 1180.0000000
43.5116840 1134.0000000
43.5313730 1145.0000000
43.5510620 1239.0000000
43.5707510 1198.0000000
43.5904400 1236.0000000
43.6101290 1210.0000000
43.6298180 1156.0000000
43.6495070 1182.0000000
43.6691960 1201.0000000
43.6888850 1174.0000000
43.7085740 1238.0000000
43.7282630 1237.0000000
43.7479520 1330.0000000
43.7676410 1287.0000000
43.7873300 1173.0000000
43.8070190 1215.0000000
43.8267080 1229.0000000
43.8463970 1185.0000000
43.8660860 1211.0000000
43.8857750 1229.0000000
43.9054640 1133.0000000
43.9251530 1204.0000000
43.9448420 1214.0000000
43.9645310 1164.0000000
43.9842200 1093.0000000
44.0039090 1183.0000000
44.0235980 1165.0000000
44.0432870 1201.0000000
44.0629760 1223.0000000
44.0826650 1160.0000000
44.1023540 1186.0000000
44.1220430 1151.0000000
44.1417320 1254.0000000
44.1614210 1180.0000000
44.1811100 1259.0000000
44.2007990 1185.0000000
44.2204880 1157.0000000
44.2401770 1158.0000000
44.2598660 1169.0000000
44.2795550 1126.0000000
44.2992440 1215.0000000
44.3189330 1185.0000000
44.3386220 1167.0000000
44.3583110 1119.0000000
44.3780000 1133.0000000
44.3976890 1066.0000000
44.4173780 1165.0000000
44.4370670 1197.0000000
44.4567560 1150.0000000
44.4764450 1134.0000000
44.4961340 1125.0000000
44.5158230 1188.0000000
44.5355120 1093.0000000
44.5552010 1125.0000000
44.5748900 1176.0000000
44.5945790 1174.0000000
44.6142680 1165.0000000
44.6339570 1157.0000000
44.6536460 1113.0000000
44.6733350 1150.0000000
44.6930240 1116.0000000
44.7127130 1134.0000000
44.7324020 1092.0000000
44.7520910 1074.0000000
44.7717800 1197.0000000
44.7914690 1114.0000000
44.8111580 1106.0000000
44.8308470 1109.0000000
44.8505360 1179.0000000
44.8702250 1097.0000000
44.8899140 1093.0000000
44.9096030 1124.0000000
44.9292920 1087.0000000
44.9489810 1126.0000000
44.9686700 1122.0000000
44.9883590 1046.0000000
45.0080480 1121.0000000
45.0277370 1175.0000000
45.0474260 1143.0000000
45.0671150 1191.0000000
45.0868040 1205.0000000
45.1064930 1261.0000000
45.1261820 1246.0000000
45.1458710 1308.0000000
45.1655600 1392.0000000
45.1852490 1302.0000000
45.2049380 1182.0000000
45.2246270 1238.0000000
45.2443160 1229.0000000
45.2640050 1194.0000000
45.2836940 1221.0000000
45.3033830 1259.0000000
45.3230720 1177.0000000
45.3427610 1109.0000000
45.3624500 1145.0000000
45.3821390 1170.0000000
45.4018280 1132.0000000
45.4215170 1143.0000000
45.4412060 1169.0000000
45.4608950 1097.0000000
45.4805840 1125.0000000
45.5002730 1125.0000000
45.5199620 1193.0000000
45.5396510 1123.0000000
45.5593400 1081.0000000
45.5790290 1120.0000000
45.5987180 1077.0000000
45.6184070 1125.0000000
45.6380960 1153.0000000
45.6577850 1059.0000000
45.6774740 1148.0000000
45.6971630 1093.0000000
45.7168520 1030.0000000
45.7365410 1094.0000000
45.7562300 1096.0000000
45.7759190 1170.0000000
45.7956080 1161.0000000
45.8152970 1134.0000000
45.8349860 1213.0000000
45.8546750 1106.0000000
45.8743640 1140.0000000
45.8940530 1127.0000000
45.9137420 1105.0000000
45.9334310 1112.0000000
45.9531200 1176.0000000
45.9728090 1099.0000000
45.9924980 1047.0000000
46.0121870 1121.0000000
46.0318760 1138.0000000
46.0515650 1159.0000000
46.0712540 1163.0000000
46.0909430 1237.0000000
46.1106320 1271.0000000
46.1303210 1175.0000000
46.1500100 1186.0000000
46.1696990 1116.0000000
46.1893880 1263.0000000
46.2090770 1285.0000000
46.2287660 1372.0000000
46.2484550 1278.0000000
46.2681440 1236.0000000
46.2878330 1143.0000000
46.3075220 1087.0000000
46.3272110 1087.0000000
46.3469000 1143.0000000
46.3665890 1159.0000000
46.3862780 1106.0000000
46.4059670 1067.0000000
46.4256560 1015.0000000
46.4453450 1121.0000000
46.4650340 1095.0000000
46.4847230 1048.0000000
46.5044120 1065.0000000
46.5241010 1003.0000000
46.5437900 1063.0000000
46.5634790 1038.0000000
46.5831680 1049.0000000
46.6028570 1044.0000000
46.6225460 996.0000000
46.6422350 1064.0000000
46.6619240 1034.0000000
46.6816130 1031.0000000
46.7013020 1047.0000000
46.7209910 1025.0000000
46.7406800 994.0000000
46.7603690 1002.0000000
46.7800580 1039.0000000
46.7997470 1019.0000000
46.8194360 987.0000000
46.8391250 1033.0000000
46.8588140 1028.0000000
46.8785030 946.0000000
46.8981920 1008.0000000
46.9178810 1099.0000000
46.9375700 964.0000000
46.9572590 1036.0000000
46.9769480 1053.0000000
46.9966370 1014.0000000
47.0163260 995.0000000
47.0360150 999.0000000
47.0557040 1058.0000000
47.0753930 1053.0000000
47.0950820 1023.0000000
47.1147710 1047.0000000
47.1344600 1041.0000000
47.1541490 1029.0000000
47.1738380 1026.0000000
47.1935270 1048.0000000
47.2132160 1030.0000000
47.2329050 1057.0000000
47.2525940 1051.0000000
47.2722830 979.0000000
47.2919720 986.0000000
47.3116610 1022.0000000
47.3313500 970.0000000
47.3510390 1032.0000000
47.3707280 977.0000000
47.3904170 960.0000000
47.4101060 985.0000000
47.4297950 982.0000000
47.4494840 986.0000000
47.4691730 976.0000000
47.4888620 955.0000000
47.5085510 1011.0000000
47.5282400 965.0000000
47.5479290 964.0000000
47.5676180 952.0000000
47.5873070 1008.0000000
47.6069960 1006.0000000
47.6266850 995.0000000
47.6463740 994.0000000
47.6660630 929.0000000
47.6857520 950.0000000
47.7054410 973.0000000
47.7251300 938.0000000
47.7448190 952.0000000
47.7645080 984.0000000
47.7841970 996.0000000
47.8038860 945.0000000
47.8235750 961.0000000
47.8432640 907.0000000
47.8629530 961.0000000
47.8826420 1010.0000000
47.9023310 920.0000000
47.9220200 995.0000000
47.9417090 967.0000000
47.9613980 937.0000000
47.9810870 1008.0000000
48.0007760 948.0000000
48.0204650 954.0000000
48.0401540 927.0000000
48.0598430 937.0000000
48.0795320 968.0000000
48.0992210 939.0000000
48.1189100 1028.0000000
48.1385990 1039.0000000
48.1582880 962.0000000
48.1779770 971.0000000
48.1976660 965.0000000
48.2173550 991.0000000
48.2370440 1006.0000000
48.2567330 1019.0000000
48.2764220 989.0000000
48.2961110 922.0000000
48.3158000 904.0000000
48.3354890 921.0000000
48.3551780 997.0000000
48.3748670 932.0000000
48.3945560 983.0000000
48.4142450 936.0000000
48.4339340 987.0000000
48.4536230 929.0000000
48.4733120 928.0000000
48.4930010 945.0000000
48.5126900 918.0000000
48.5323790 953.0000000
48.5520680 945.0000000
48.5717570 939.0000000
48.5914460 952.0000000
48.6111350 957.0000000
48.6308240 951.0000000
48.6505130 924.0000000
48.6702020 956.0000000
48.6898910 932.0000000
48.7095800 989.0000000
48.7292690 924.0000000
48.7489580 866.0000000
48.7686470 846.0000000
48.7883360 965.0000000
48.8080250 996.0000000
48.8277140 988.0000000
48.8474030 910.0000000
48.8670920 912.0000000
48.8867810 929.0000000
48.9064700 958.0000000
48.9261590 922.0000000
48.9458480 948.0000000
48.9655370 954.0000000
48.9852260 906.0000000
49.0049150 892.0000000
49.0246040 916.0000000
49.0442930 929.0000000
49.0639820 927.0000000
49.0836710 966.0000000
49.1033600 973.0000000
49.1230490 962.0000000
49.1427380 936.0000000
49.1624270 939.0000000
49.1821160 917.0000000
49.2018050 925.0000000
49.2214940 931.0000000
49.2411830 887.0000000
49.2608720 876.0000000
49.2805610 899.0000000
49.3002500 892.0000000
49.3199390 890.0000000
49.3396280 930.0000000
49.3593170 903.0000000
49.3790060 867.0000000
49.3986950 872.0000000
49.4183840 885.0000000
49.4380730 859.0000000
49.4577620 917.0000000
49.4774510 909.0000000
49.4971400 923.0000000
49.5168290 908.0000000
49.5365180 901.0000000
49.5562070 936.0000000
49.5758960 953.0000000
49.5955850 882.0000000
49.6152740 864.0000000
49.6349630 905.0000000
49.6546520 935.0000000
49.6743410 922.0000000
49.6940300 867.0000000
49.7137190 808.0000000
49.7334080 899.0000000
49.7530970 844.0000000
49.7727860 961.0000000
49.7924750 888.0000000
49.8121640 917.0000000
49.8318530 868.0000000
49.8515420 878.0000000
49.8712310 886.0000000
49.8909200 865.0000000
49.9106090 843.0000000
49.9302980 886.0000000
49.9499870 920.0000000
49.9696760 930.0000000
49.9893650 868.0000000
50.0090540 917.0000000
